# KAGRA sensitivity curves
# This document gives the data used to make Figure 1(c) in the accompanying
# LIGO Document LIGO-P1200087.
# The first column is the frequency (Hz), the remaining columns are the 
# amplitude spectral densities (Hz^{-1/2}).
# Curves are: Openning low; Openning high/Early low; Early high/Mid low; Mid high; Late low; Late high/Design
#
1.002305e+00 1.530680e-14 7.653400e-15 3.826700e-15 2.296020e-15 7.653399e-16
1.004616e+00 1.503030e-14 7.515130e-15 3.757570e-15 2.254540e-15 7.515132e-16
1.006932e+00 1.475880e-14 7.379380e-15 3.689690e-15 2.213810e-15 7.379381e-16
1.009253e+00 1.449220e-14 7.246100e-15 3.623050e-15 2.173830e-15 7.246102e-16
1.011580e+00 1.423050e-14 7.115250e-15 3.557620e-15 2.134570e-15 7.115248e-16
1.013911e+00 1.397360e-14 6.986780e-15 3.493390e-15 2.096030e-15 6.986777e-16
1.016249e+00 1.372130e-14 6.860640e-15 3.430320e-15 2.058190e-15 6.860644e-16
1.018591e+00 1.347360e-14 6.736810e-15 3.368400e-15 2.021040e-15 6.736808e-16
1.020940e+00 1.323050e-14 6.615230e-15 3.307610e-15 1.984570e-15 6.615227e-16
1.023293e+00 1.299170e-14 6.495860e-15 3.247930e-15 1.948760e-15 6.495860e-16
1.025652e+00 1.275730e-14 6.378670e-15 3.189330e-15 1.913600e-15 6.378666e-16
1.028016e+00 1.252720e-14 6.263610e-15 3.131800e-15 1.879080e-15 6.263607e-16
1.030386e+00 1.230130e-14 6.150640e-15 3.075320e-15 1.845190e-15 6.150644e-16
1.032761e+00 1.207950e-14 6.039740e-15 3.019870e-15 1.811920e-15 6.039737e-16
1.035142e+00 1.186170e-14 5.930850e-15 2.965430e-15 1.779260e-15 5.930852e-16
1.037528e+00 1.164790e-14 5.823950e-15 2.911970e-15 1.747180e-15 5.823949e-16
1.039920e+00 1.143800e-14 5.718990e-15 2.859500e-15 1.715700e-15 5.718995e-16
1.042317e+00 1.123190e-14 5.615950e-15 2.807980e-15 1.684790e-15 5.615953e-16
1.044720e+00 1.102960e-14 5.514790e-15 2.757390e-15 1.654440e-15 5.514788e-16
1.047128e+00 1.083090e-14 5.415470e-15 2.707730e-15 1.624640e-15 5.415468e-16
1.049542e+00 1.063590e-14 5.317960e-15 2.658980e-15 1.595390e-15 5.317957e-16
1.051962e+00 1.044440e-14 5.222220e-15 2.611110e-15 1.566670e-15 5.222224e-16
1.054387e+00 1.025650e-14 5.128240e-15 2.564120e-15 1.538470e-15 5.128237e-16
1.056817e+00 1.007190e-14 5.035960e-15 2.517980e-15 1.510790e-15 5.035963e-16
1.059254e+00 9.890740e-15 4.945370e-15 2.472690e-15 1.483610e-15 4.945372e-16
1.061696e+00 9.712870e-15 4.856430e-15 2.428220e-15 1.456930e-15 4.856433e-16
1.064143e+00 9.538230e-15 4.769120e-15 2.384560e-15 1.430730e-15 4.769116e-16
1.066596e+00 9.366790e-15 4.683390e-15 2.341700e-15 1.405020e-15 4.683393e-16
1.069055e+00 9.198470e-15 4.599230e-15 2.299620e-15 1.379770e-15 4.599234e-16
1.071519e+00 9.033220e-15 4.516610e-15 2.258310e-15 1.354980e-15 4.516610e-16
1.073989e+00 8.870990e-15 4.435500e-15 2.217750e-15 1.330650e-15 4.435495e-16
1.076465e+00 8.711720e-15 4.355860e-15 2.177930e-15 1.306760e-15 4.355861e-16
1.078947e+00 8.555360e-15 4.277680e-15 2.138840e-15 1.283300e-15 4.277681e-16
1.081434e+00 8.401860e-15 4.200930e-15 2.100460e-15 1.260280e-15 4.200929e-16
1.083927e+00 8.251160e-15 4.125580e-15 2.062790e-15 1.237670e-15 4.125579e-16
1.086426e+00 8.103210e-15 4.051610e-15 2.025800e-15 1.215480e-15 4.051605e-16
1.088930e+00 7.957970e-15 3.978980e-15 1.989490e-15 1.193700e-15 3.978984e-16
1.091440e+00 7.815380e-15 3.907690e-15 1.953850e-15 1.172310e-15 3.907690e-16
1.093956e+00 7.675400e-15 3.837700e-15 1.918850e-15 1.151310e-15 3.837700e-16
1.096478e+00 7.537980e-15 3.768990e-15 1.884500e-15 1.130700e-15 3.768990e-16
1.099006e+00 7.403070e-15 3.701540e-15 1.850770e-15 1.110460e-15 3.701537e-16
1.101539e+00 7.270640e-15 3.635320e-15 1.817660e-15 1.090600e-15 3.635319e-16
1.104079e+00 7.140630e-15 3.570310e-15 1.785160e-15 1.071090e-15 3.570313e-16
1.106624e+00 7.012990e-15 3.506500e-15 1.753250e-15 1.051950e-15 3.506497e-16
1.109175e+00 6.887700e-15 3.443850e-15 1.721930e-15 1.033160e-15 3.443851e-16
1.111732e+00 6.764700e-15 3.382350e-15 1.691180e-15 1.014710e-15 3.382352e-16
1.114294e+00 6.643960e-15 3.321980e-15 1.660990e-15 9.965940e-16 3.321981e-16
1.116863e+00 6.525430e-15 3.262720e-15 1.631360e-15 9.788150e-16 3.262717e-16
1.119438e+00 6.409080e-15 3.204540e-15 1.602270e-15 9.613620e-16 3.204540e-16
1.122019e+00 6.294860e-15 3.147430e-15 1.573720e-15 9.442290e-16 3.147431e-16
1.124605e+00 6.182740e-15 3.091370e-15 1.545690e-15 9.274110e-16 3.091370e-16
1.127198e+00 6.072680e-15 3.036340e-15 1.518170e-15 9.109020e-16 3.036340e-16
1.129796e+00 5.964640e-15 2.982320e-15 1.491160e-15 8.946960e-16 2.982320e-16
1.132400e+00 5.858590e-15 2.929290e-15 1.464650e-15 8.787880e-16 2.929295e-16
1.135011e+00 5.754490e-15 2.877240e-15 1.438620e-15 8.631730e-16 2.877245e-16
1.137627e+00 5.652310e-15 2.826150e-15 1.413080e-15 8.478460e-16 2.826153e-16
1.140250e+00 5.552000e-15 2.776000e-15 1.388000e-15 8.328000e-16 2.776002e-16
1.142878e+00 5.453550e-15 2.726780e-15 1.363390e-15 8.180330e-16 2.726775e-16
1.145513e+00 5.356910e-15 2.678460e-15 1.339230e-15 8.035370e-16 2.678456e-16
1.148154e+00 5.262060e-15 2.631030e-15 1.315510e-15 7.893090e-16 2.631029e-16
1.150800e+00 5.168960e-15 2.584480e-15 1.292240e-15 7.753430e-16 2.584478e-16
1.153453e+00 5.077570e-15 2.538790e-15 1.269390e-15 7.616360e-16 2.538787e-16
1.156112e+00 4.987880e-15 2.493940e-15 1.246970e-15 7.481820e-16 2.493941e-16
1.158777e+00 4.899850e-15 2.449930e-15 1.224960e-15 7.349780e-16 2.449925e-16
1.161449e+00 4.813450e-15 2.406730e-15 1.203360e-15 7.220180e-16 2.406725e-16
1.164126e+00 4.728650e-15 2.364330e-15 1.182160e-15 7.092980e-16 2.364326e-16
1.166810e+00 4.645430e-15 2.322710e-15 1.161360e-15 6.968140e-16 2.322713e-16
1.169499e+00 4.563750e-15 2.281870e-15 1.140940e-15 6.845620e-16 2.281874e-16
1.172195e+00 4.483590e-15 2.241790e-15 1.120900e-15 6.725380e-16 2.241794e-16
1.174898e+00 4.404920e-15 2.202460e-15 1.101230e-15 6.607380e-16 2.202459e-16
1.177606e+00 4.327720e-15 2.163860e-15 1.081930e-15 6.491580e-16 2.163858e-16
1.180321e+00 4.251960e-15 2.125980e-15 1.062990e-15 6.377930e-16 2.125978e-16
1.183042e+00 4.177610e-15 2.088800e-15 1.044400e-15 6.266410e-16 2.088804e-16
1.185769e+00 4.104650e-15 2.052330e-15 1.026160e-15 6.156980e-16 2.052326e-16
1.188502e+00 4.033060e-15 2.016530e-15 1.008270e-15 6.049590e-16 2.016531e-16
1.191242e+00 3.962820e-15 1.981410e-15 9.907040e-16 5.944220e-16 1.981407e-16
1.193988e+00 3.893890e-15 1.946940e-15 9.734720e-16 5.840830e-16 1.946943e-16
1.196740e+00 3.826260e-15 1.913130e-15 9.565640e-16 5.739380e-16 1.913128e-16
1.199499e+00 3.759900e-15 1.879950e-15 9.399750e-16 5.639850e-16 1.879949e-16
1.202264e+00 3.694790e-15 1.847400e-15 9.236980e-16 5.542190e-16 1.847397e-16
1.205036e+00 3.630920e-15 1.815460e-15 9.077300e-16 5.446380e-16 1.815460e-16
1.207814e+00 3.568260e-15 1.784130e-15 8.920640e-16 5.352380e-16 1.784127e-16
1.210598e+00 3.506780e-15 1.753390e-15 8.766950e-16 5.260170e-16 1.753390e-16
1.213389e+00 3.446470e-15 1.723240e-15 8.616180e-16 5.169710e-16 1.723237e-16
1.216186e+00 3.387320e-15 1.693660e-15 8.468290e-16 5.080980e-16 1.693659e-16
1.218990e+00 3.329290e-15 1.664640e-15 8.323220e-16 4.993930e-16 1.664645e-16
1.221800e+00 3.272370e-15 1.636190e-15 8.180930e-16 4.908560e-16 1.636187e-16
1.224616e+00 3.216550e-15 1.608280e-15 8.041380e-16 4.824830e-16 1.608275e-16
1.227439e+00 3.161800e-15 1.580900e-15 7.904500e-16 4.742700e-16 1.580900e-16
1.230269e+00 3.108110e-15 1.554050e-15 7.770270e-16 4.662160e-16 1.554054e-16
1.233105e+00 3.055450e-15 1.527730e-15 7.638630e-16 4.583180e-16 1.527727e-16
1.235947e+00 3.003820e-15 1.501910e-15 7.509550e-16 4.505730e-16 1.501910e-16
1.238797e+00 2.953190e-15 1.476600e-15 7.382980e-16 4.429790e-16 1.476597e-16
1.241652e+00 2.903560e-15 1.451780e-15 7.258890e-16 4.355330e-16 1.451778e-16
1.244515e+00 2.854890e-15 1.427450e-15 7.137230e-16 4.282340e-16 1.427445e-16
1.247383e+00 2.807180e-15 1.403590e-15 7.017960e-16 4.210770e-16 1.403591e-16
1.250259e+00 2.760420e-15 1.380210e-15 6.901040e-16 4.140630e-16 1.380209e-16
1.253141e+00 2.714580e-15 1.357290e-15 6.786450e-16 4.071870e-16 1.357290e-16
1.256030e+00 2.669650e-15 1.334830e-15 6.674140e-16 4.004480e-16 1.334827e-16
1.258925e+00 2.625630e-15 1.312810e-15 6.564070e-16 3.938440e-16 1.312814e-16
1.261828e+00 2.582490e-15 1.291240e-15 6.456210e-16 3.873730e-16 1.291243e-16
1.264736e+00 2.540220e-15 1.270110e-15 6.350540e-16 3.810320e-16 1.270108e-16
1.267652e+00 2.498800e-15 1.249400e-15 6.247010e-16 3.748210e-16 1.249402e-16
1.270574e+00 2.458240e-15 1.229120e-15 6.145590e-16 3.687350e-16 1.229118e-16
1.273503e+00 2.418500e-15 1.209250e-15 6.046260e-16 3.627750e-16 1.209251e-16
1.276439e+00 2.379590e-15 1.189790e-15 5.948970e-16 3.569380e-16 1.189795e-16
1.279381e+00 2.341490e-15 1.170740e-15 5.853710e-16 3.512230e-16 1.170743e-16
1.282331e+00 2.304180e-15 1.152090e-15 5.760450e-16 3.456270e-16 1.152089e-16
1.285287e+00 2.267660e-15 1.133830e-15 5.669140e-16 3.401490e-16 1.133829e-16
1.288250e+00 2.231910e-15 1.115960e-15 5.579780e-16 3.347870e-16 1.115956e-16
1.291219e+00 2.196930e-15 1.098470e-15 5.492330e-16 3.295400e-16 1.098466e-16
1.294196e+00 2.162710e-15 1.081350e-15 5.406770e-16 3.244060e-16 1.081353e-16
1.297179e+00 2.129230e-15 1.064610e-15 5.323060e-16 3.193840e-16 1.064613e-16
1.300170e+00 2.096480e-15 1.048240e-15 5.241200e-16 3.144720e-16 1.048240e-16
1.303167e+00 2.064460e-15 1.032230e-15 5.161150e-16 3.096690e-16 1.032230e-16
1.306171e+00 2.033160e-15 1.016580e-15 5.082890e-16 3.049740e-16 1.016578e-16
1.309182e+00 2.002560e-15 1.001280e-15 5.006410e-16 3.003840e-16 1.001281e-16
1.312200e+00 1.972670e-15 9.863340e-16 4.931670e-16 2.959000e-16 9.863344e-17
1.315225e+00 1.943470e-15 9.717340e-16 4.858670e-16 2.915200e-16 9.717336e-17
1.318257e+00 1.914950e-15 9.574750e-16 4.787380e-16 2.872430e-16 9.574752e-17
1.321296e+00 1.887110e-15 9.435560e-16 4.717780e-16 2.830670e-16 9.435556e-17
1.324342e+00 1.859940e-15 9.299710e-16 4.649860e-16 2.789910e-16 9.299713e-17
1.327395e+00 1.833440e-15 9.167190e-16 4.583600e-16 2.750160e-16 9.167190e-17
1.330454e+00 1.807590e-15 9.037960e-16 4.518980e-16 2.711390e-16 9.037957e-17
1.333521e+00 1.782400e-15 8.911980e-16 4.455990e-16 2.673590e-16 8.911983e-17
1.336596e+00 1.757850e-15 8.789240e-16 4.394620e-16 2.636770e-16 8.789241e-17
1.339677e+00 1.733940e-15 8.669710e-16 4.334850e-16 2.600910e-16 8.669705e-17
1.342765e+00 1.710670e-15 8.553350e-16 4.276680e-16 2.566010e-16 8.553352e-17
1.345860e+00 1.688030e-15 8.440160e-16 4.220080e-16 2.532050e-16 8.440158e-17
1.348963e+00 1.666020e-15 8.330110e-16 4.165050e-16 2.499030e-16 8.330105e-17
1.352073e+00 1.644630e-15 8.223170e-16 4.111590e-16 2.466950e-16 8.223173e-17
1.355189e+00 1.623870e-15 8.119350e-16 4.059670e-16 2.435800e-16 8.119347e-17
1.358313e+00 1.603720e-15 8.018610e-16 4.009310e-16 2.405580e-16 8.018611e-17
1.361445e+00 1.584190e-15 7.920950e-16 3.960480e-16 2.376290e-16 7.920954e-17
1.364583e+00 1.565270e-15 7.826370e-16 3.913180e-16 2.347910e-16 7.826366e-17
1.367729e+00 1.546970e-15 7.734840e-16 3.867420e-16 2.320450e-16 7.734839e-17
1.370882e+00 1.529270e-15 7.646370e-16 3.823180e-16 2.293910e-16 7.646367e-17
1.374042e+00 1.512190e-15 7.560950e-16 3.780470e-16 2.268280e-16 7.560947e-17
1.377209e+00 1.495720e-15 7.478580e-16 3.739290e-16 2.243570e-16 7.478578e-17
1.380384e+00 1.479850e-15 7.399260e-16 3.699630e-16 2.219780e-16 7.399262e-17
1.383566e+00 1.464600e-15 7.323000e-16 3.661500e-16 2.196900e-16 7.323004e-17
1.386756e+00 1.449960e-15 7.249810e-16 3.624900e-16 2.174940e-16 7.249810e-17
1.389953e+00 1.435940e-15 7.179690e-16 3.589840e-16 2.153910e-16 7.179690e-17
1.393157e+00 1.422530e-15 7.112660e-16 3.556330e-16 2.133800e-16 7.112658e-17
1.396368e+00 1.409750e-15 7.048730e-16 3.524360e-16 2.114620e-16 7.048729e-17
1.399587e+00 1.397580e-15 6.987920e-16 3.493960e-16 2.096380e-16 6.987924e-17
1.402814e+00 1.386050e-15 6.930260e-16 3.465130e-16 2.079080e-16 6.930264e-17
1.406047e+00 1.375160e-15 6.875780e-16 3.437890e-16 2.062730e-16 6.875778e-17
1.409289e+00 1.364900e-15 6.824490e-16 3.412250e-16 2.047350e-16 6.824494e-17
1.412538e+00 1.355290e-15 6.776450e-16 3.388220e-16 2.032930e-16 6.776448e-17
1.415794e+00 1.346340e-15 6.731680e-16 3.365840e-16 2.019500e-16 6.731679e-17
1.419058e+00 1.338050e-15 6.690230e-16 3.345120e-16 2.007070e-16 6.690231e-17
1.422329e+00 1.330430e-15 6.652150e-16 3.326080e-16 1.995650e-16 6.652153e-17
1.425608e+00 1.323500e-15 6.617500e-16 3.308750e-16 1.985250e-16 6.617498e-17
1.428894e+00 1.317270e-15 6.586330e-16 3.293160e-16 1.975900e-16 6.586328e-17
1.432188e+00 1.311740e-15 6.558710e-16 3.279350e-16 1.967610e-16 6.558708e-17
1.435489e+00 1.306940e-15 6.534710e-16 3.267360e-16 1.960410e-16 6.534712e-17
1.438799e+00 1.302880e-15 6.514420e-16 3.257210e-16 1.954330e-16 6.514421e-17
1.442115e+00 1.299580e-15 6.497920e-16 3.248960e-16 1.949380e-16 6.497922e-17
1.445440e+00 1.297060e-15 6.485310e-16 3.242660e-16 1.945590e-16 6.485313e-17
1.448772e+00 1.295340e-15 6.476700e-16 3.238350e-16 1.943010e-16 6.476701e-17
1.452112e+00 1.294440e-15 6.472200e-16 3.236100e-16 1.941660e-16 6.472203e-17
1.455459e+00 1.294390e-15 6.471950e-16 3.235970e-16 1.941580e-16 6.471949e-17
1.458814e+00 1.295220e-15 6.476080e-16 3.238040e-16 1.942820e-16 6.476078e-17
1.462177e+00 1.296950e-15 6.484750e-16 3.242370e-16 1.945420e-16 6.484747e-17
1.465548e+00 1.299630e-15 6.498130e-16 3.249060e-16 1.949440e-16 6.498127e-17
1.468926e+00 1.303280e-15 6.516400e-16 3.258200e-16 1.954920e-16 6.516404e-17
1.472312e+00 1.307960e-15 6.539790e-16 3.269890e-16 1.961940e-16 6.539786e-17
1.475707e+00 1.313700e-15 6.568500e-16 3.284250e-16 1.970550e-16 6.568501e-17
1.479108e+00 1.320560e-15 6.602800e-16 3.301400e-16 1.980840e-16 6.602801e-17
1.482518e+00 1.328590e-15 6.642970e-16 3.321480e-16 1.992890e-16 6.642965e-17
1.485936e+00 1.337860e-15 6.689300e-16 3.344650e-16 2.006790e-16 6.689301e-17
1.489361e+00 1.348430e-15 6.742150e-16 3.371080e-16 2.022650e-16 6.742151e-17
1.492794e+00 1.360380e-15 6.801900e-16 3.400950e-16 2.040570e-16 6.801896e-17
1.496236e+00 1.373790e-15 6.868960e-16 3.434480e-16 2.060690e-16 6.868962e-17
1.499685e+00 1.388760e-15 6.943820e-16 3.471910e-16 2.083150e-16 6.943821e-17
1.503142e+00 1.405400e-15 7.027010e-16 3.513500e-16 2.108100e-16 7.027005e-17
1.506607e+00 1.423820e-15 7.119110e-16 3.559560e-16 2.135730e-16 7.119110e-17
1.510080e+00 1.444160e-15 7.220810e-16 3.610400e-16 2.166240e-16 7.220808e-17
1.513561e+00 1.466570e-15 7.332860e-16 3.666430e-16 2.199860e-16 7.332857e-17
1.517050e+00 1.491220e-15 7.456120e-16 3.728060e-16 2.236830e-16 7.456116e-17
1.520547e+00 1.518310e-15 7.591560e-16 3.795780e-16 2.277470e-16 7.591563e-17
1.524053e+00 1.548060e-15 7.740310e-16 3.870160e-16 2.322090e-16 7.740314e-17
1.527566e+00 1.580730e-15 7.903650e-16 3.951820e-16 2.371090e-16 7.903649e-17
1.531087e+00 1.616610e-15 8.083040e-16 4.041520e-16 2.424910e-16 8.083040e-17
1.534617e+00 1.656040e-15 8.280190e-16 4.140100e-16 2.484060e-16 8.280193e-17
1.538155e+00 1.699420e-15 8.497090e-16 4.248540e-16 2.549130e-16 8.497089e-17
1.541700e+00 1.747210e-15 8.736050e-16 4.368020e-16 2.620810e-16 8.736046e-17
1.545254e+00 1.799960e-15 8.999790e-16 4.499900e-16 2.699940e-16 8.999793e-17
1.548817e+00 1.858310e-15 9.291560e-16 4.645780e-16 2.787470e-16 9.291558e-17
1.552387e+00 1.923040e-15 9.615200e-16 4.807600e-16 2.884560e-16 9.615195e-17
1.555966e+00 1.995070e-15 9.975340e-16 4.987670e-16 2.992600e-16 9.975336e-17
1.559552e+00 2.075520e-15 1.037760e-15 5.188800e-16 3.113280e-16 1.037760e-16
1.563148e+00 2.165770e-15 1.082890e-15 5.414430e-16 3.248660e-16 1.082886e-16
1.566751e+00 2.267530e-15 1.133760e-15 5.668820e-16 3.401290e-16 1.133764e-16
1.570363e+00 2.382920e-15 1.191460e-15 5.957290e-16 3.574380e-16 1.191459e-16
1.573983e+00 2.514650e-15 1.257320e-15 6.286620e-16 3.771970e-16 1.257324e-16
1.577611e+00 2.666200e-15 1.333100e-15 6.665510e-16 3.999310e-16 1.333102e-16
1.581248e+00 2.842150e-15 1.421080e-15 7.105380e-16 4.263230e-16 1.421077e-16
1.584893e+00 3.048600e-15 1.524300e-15 7.621500e-16 4.572900e-16 1.524300e-16
1.588547e+00 3.293890e-15 1.646950e-15 8.234730e-16 4.940840e-16 1.646946e-16
1.592209e+00 3.589750e-15 1.794870e-15 8.974370e-16 5.384620e-16 1.794874e-16
1.595879e+00 3.953150e-15 1.976580e-15 9.882880e-16 5.929730e-16 1.976577e-16
1.599558e+00 4.409700e-15 2.204850e-15 1.102420e-15 6.614550e-16 2.204850e-16
1.603245e+00 4.999810e-15 2.499900e-15 1.249950e-15 7.499710e-16 2.499903e-16
1.606941e+00 5.791300e-15 2.895650e-15 1.447820e-15 8.686950e-16 2.895649e-16
1.610646e+00 6.907340e-15 3.453670e-15 1.726830e-15 1.036100e-15 3.453669e-16
1.614359e+00 8.597360e-15 4.298680e-15 2.149340e-15 1.289600e-15 4.298681e-16
1.618080e+00 1.145460e-14 5.727320e-15 2.863660e-15 1.718200e-15 5.727319e-16
1.621810e+00 1.732020e-14 8.660100e-15 4.330050e-15 2.598030e-15 8.660096e-16
1.625549e+00 3.620040e-14 1.810020e-14 9.050090e-15 5.430050e-15 1.810018e-15
1.629296e+00 3.298130e-13 1.649060e-13 8.245320e-14 4.947190e-14 1.649064e-14
1.633052e+00 2.921480e-14 1.460740e-14 7.303690e-15 4.382220e-15 1.460739e-15
1.636816e+00 1.515950e-14 7.579740e-15 3.789870e-15 2.273920e-15 7.579735e-16
1.640590e+00 1.017930e-14 5.089660e-15 2.544830e-15 1.526900e-15 5.089657e-16
1.644372e+00 7.630850e-15 3.815420e-15 1.907710e-15 1.144630e-15 3.815423e-16
1.648162e+00 6.083080e-15 3.041540e-15 1.520770e-15 9.124630e-16 3.041542e-16
1.651962e+00 5.043690e-15 2.521840e-15 1.260920e-15 7.565530e-16 2.521844e-16
1.655770e+00 4.297770e-15 2.148880e-15 1.074440e-15 6.446650e-16 2.148883e-16
1.659587e+00 3.736570e-15 1.868290e-15 9.341430e-16 5.604860e-16 1.868286e-16
1.663413e+00 3.299170e-15 1.649590e-15 8.247930e-16 4.948760e-16 1.649587e-16
1.667247e+00 2.948770e-15 1.474390e-15 7.371930e-16 4.423160e-16 1.474386e-16
1.671091e+00 2.661830e-15 1.330920e-15 6.654590e-16 3.992750e-16 1.330917e-16
1.674943e+00 2.422610e-15 1.211300e-15 6.056520e-16 3.633910e-16 1.211305e-16
1.678804e+00 2.220160e-15 1.110080e-15 5.550390e-16 3.330240e-16 1.110079e-16
1.682674e+00 2.046640e-15 1.023320e-15 5.116600e-16 3.069960e-16 1.023321e-16
1.686553e+00 1.896300e-15 9.481510e-16 4.740760e-16 2.844450e-16 9.481511e-17
1.690441e+00 1.764810e-15 8.824060e-16 4.412030e-16 2.647220e-16 8.824061e-17
1.694338e+00 1.648860e-15 8.244280e-16 4.122140e-16 2.473280e-16 8.244283e-17
1.698244e+00 1.545850e-15 7.729270e-16 3.864630e-16 2.318780e-16 7.729268e-17
1.702158e+00 1.453760e-15 7.268810e-16 3.634410e-16 2.180640e-16 7.268813e-17
1.706082e+00 1.370950e-15 6.854750e-16 3.427370e-16 2.056420e-16 6.854746e-17
1.710015e+00 1.296090e-15 6.480450e-16 3.240220e-16 1.944130e-16 6.480448e-17
1.713957e+00 1.228100e-15 6.140500e-16 3.070250e-16 1.842150e-16 6.140498e-17
1.717908e+00 1.166080e-15 5.830420e-16 2.915210e-16 1.749120e-16 5.830415e-17
1.721869e+00 1.109290e-15 5.546460e-16 2.773230e-16 1.663940e-16 5.546464e-17
1.725838e+00 1.057100e-15 5.285500e-16 2.642750e-16 1.585650e-16 5.285505e-17
1.729816e+00 1.008980e-15 5.044880e-16 2.522440e-16 1.513460e-16 5.044881e-17
1.733804e+00 9.644660e-16 4.822330e-16 2.411160e-16 1.446700e-16 4.822329e-17
1.737801e+00 9.231810e-16 4.615910e-16 2.307950e-16 1.384770e-16 4.615906e-17
1.741807e+00 8.847880e-16 4.423940e-16 2.211970e-16 1.327180e-16 4.423941e-17
1.745822e+00 8.489960e-16 4.244980e-16 2.122490e-16 1.273490e-16 4.244981e-17
1.749847e+00 8.155530e-16 4.077770e-16 2.038880e-16 1.223330e-16 4.077765e-17
1.753880e+00 7.842370e-16 3.921190e-16 1.960590e-16 1.176360e-16 3.921187e-17
1.757924e+00 7.548550e-16 3.774280e-16 1.887140e-16 1.132280e-16 3.774276e-17
1.761976e+00 7.272350e-16 3.636180e-16 1.818090e-16 1.090850e-16 3.636175e-17
1.766038e+00 7.012250e-16 3.506130e-16 1.753060e-16 1.051840e-16 3.506126e-17
1.770109e+00 6.766910e-16 3.383450e-16 1.691730e-16 1.015040e-16 3.383454e-17
